40,Abbe Pierre Froment
112,Piazza
207,Pierre
252,Piazza
287,Diocletian
491,Pierre
636,Pierre
727,Pierre
815,Pierre
855,Trajan
958,Pierre
994,Corso
1076,M. Zola
1176,Altieri
1245,Ara Coeli
1417,Pierre
1458,Corso Vittorio Emanuele
1479,Pierre
1506,Bramante
1662,Corso Vittorio Emanuele
1710,Pierre
1907,Pierre
2104,Garibaldi
2129,Garibaldi
2143,Pierre
2325,St. Peter
2423,Pierre
2486,Pierre
2616,Pierre
2664,Campagna
2680,Pierre
2742,Pierre
2816,Pierre
2872,Lourdes
3110,Abbe Rose
3121,Marguerite
3133,Abbe Rose
3175,Pierre
3325,Pierre
3341,Pierre
3484,Pierre
3670,Marguerite
3681,Faubourg St. Antoine
3948,Pierre
4365,Pierre
4403,Pierre
4494,Pierre
4772,Pierre
4913,Pierre
5065,Pierre
5214,Jehovah
5240,Abbe Rose
5296,Abbe Rose
5377,Pierre
5395,Abbe Rose
5485,Pierre
5701,Jesus
5799,Christ
5857,Lourdes
5980,Pierre
5988,Abbe Rose
6005,Monseigneur Bergerot
6060,Pierre
6105,Viscount Philibert de la Choue
6157,Viscount
6330,Pierre
6409,Viscount
6438,Pierre
6661,Lourdes
6780,Pierre
6962,Viscount Philibert de la Choue
7020,Monseigneur Bergerot
7158,Pierre
7240,Pierre
7270,Pierre
7310,Lourdes
7629,Villa Mattei
7646,Maria Maggiore
7679,Pierre
7759,Maria Maggiore
7814,Pierre
7843,St. Peter
7905,Pierre
7942,Alban
7952,Roman Campagna
7994,Cecilia Metella
8156,Andrea della Valle
8241,Pierre
8397,Pierre
8493,St. Peter
8857,St. Peter
8929,Pierre
9161,Jesus
9204,Jesus Himself
9243,Jesus
9529,Jesus
9669,Pierre
9699,Peter
9862,Augustus
10223,Pierre
10644,Pierre
10677,Jesus
10780,Pierre
10865,Pierre
10982,Pierre
11537,Christ
11911,Pierre
12023,Ketteler
12063,Mermillod
12110,Manning
12493,Viscount Philibert de la Choue
12548,Viscount
12585,Viscount
12702,Pierre
13229,Pierre
13265,Leo XIII
13270,Pope
13370,Leo
13396,Leo
13405,Pius IX
13475,Thomas Aquinas
13623,Leo XIII
13754,Leo XIII
13761,Bishop of Perugia
13900,Immortale Dei
13915,Sapientoe
14103,Christ
14129,Jesus
14151,Leo XIII
14185,Pierre
14343,Constantine
14390,Charlemagne
15020,Pierre
15030,Pope Leo XIII
15057,Jesus
15132,Pierre
15214,Lourdes
15336,Pierre
15456,Christ
15544,Pierre
15677,Pierre
15692,Abbe Rose
15705,Viscount Philibert de la Choue
15731,Bergerot
15879,Leo XIII
15900,Pierre
15978,Lourdes
16152,Pierre
16237,St. Peter
16454,Pierre
16504,Pierre
16524,Giulia
16624,Pope Julius II
16653,Corso
16743,Pierre
16787,Corso
16835,Pierre
16865,Sacchetti
16873,Antonio da Sangallo
16918,Marcellus
17149,Pierre
17457,Pierre
17528,Pierre
17763,Pierre
17848,Pierre
17860,Pierre Froment
17905,Monsieur l’Abbe
17974,Pierre
17978,Viscount Philibert de la Choue
17992,Victorine Bosquet
18055,Ernesta Brandini
18090,Benedetta
18104,Victorine
18168,Monsieur le Vicomte
18219,Contessina
18233,Viscount Philibert de la Choue
18245,Pierre
18267,Pio Boccanera
18286,Serafina
18290,Benedetta
18294,Ernesta
18300,Count Brandini
18313,Dario Boccanera
18320,Onofrio
18342,Viscount de la Choue
18358,Brandini
18362,Benedetta
18381,Brandini
18401,Benedetta
18437,Benedetta
18447,Serafina
18454,M. de la Choue
18480,Pierre
18505,Benedetta
18548,Viscount
18580,Pierre
18621,Pierre
18646,Victorine
18661,Monsieur l’Abbe
18780,Giacomo
18788,Monsieur
18792,Pierre
18842,Benedetta
18873,Victorine
18956,Pierre
18960,Victorine
19118,Donna Serafina
19206,Monsieur l’Abbe
19227,Victorine
19290,Pierre
19303,Don Vigilio
19321,Monsieur le Vicomte
19472,Victorine
19520,Pierre
19530,Giaccomo
19573,Victorine
19621,Pierre
19667,Giaccomo
19673,Victorine
19686,Victorine
19764,Contessina
19789,Pierre
19846,Monsieur l’Abbe
19858,Victorine
20005,Monsieur l’Abbe
20046,Contessina
20066,Monsieur l’Abbe
20117,Pierre
20202,Boccaneras
20286,Boccaneras
20455,Bocca
20508,Onfredo
20536,Onfredo
20553,Count Costamagna
20697,Costamagna
20714,Onfredo
20784,Flavio Corradini
20801,Prince Boccanera
20813,Ercole
20854,Ercole
20872,Flavio
21042,Boccaneras
21099,Ascanio
21114,Corvisieri
21117,Pio
21123,Serafina
21141,Ernesta
21143,Onofrio
21152,Ernesta
21159,Benedetta
21181,Onofrio
21186,Prince Dario
21225,Dario
21229,Benedetta
21290,Onofrio
21315,La Montefiori
21322,Marchesa Flavia
21345,Villa Montefiori
21477,Serafina
21486,Onofrio
21490,Pio
21512,Ernesta
21519,Onofrio
21551,Villa Montefiori
21556,Benedetta
21573,Benedetta
21575,Dario
21631,Ernesta
21770,Count Brandini
21820,Ernesta
21874,Brandini
21949,Ernesta
22110,Donna Serafina
22159,Ernesta
22166,Benedetta
22246,Benedetta
22397,Donna Serafina
22403,Pio
22420,Pope
22501,Benedetta
22565,Ernesta
22611,Benedetta
22744,Ernesta
22917,Abbe Pisoni
22928,Brigida
23019,Ernesta
23022,Benedetta
23057,Benedetta
23059,Dario
23089,Ernesta
23110,Dario
23356,Benedetta
23358,Dario
23366,Count Prada
23469,Garibaldi
23540,Prince Onofrio
23563,Villa Montefiori
23590,Flavia
23654,Benedetta
23688,Flavia
23711,Ernesta
23799,Benedetta
23968,Benedetta
24025,Leo IV
24150,Abbe Pisoni
24219,Benedetta
24238,Madonna
24263,Abbe Pisoni
24319,Donna Serafina
24339,Benedetta
24366,Dario
24429,Prada
24514,Benedetta
24567,Prada
24622,Benedetta
24682,Dario
24728,M. George Ohnet
24985,Ernesta
25044,Donna Serafina
25060,Abbe Pisoni
25087,Ernesta
25142,Benedetta
25183,Serafina
25223,Serafina
25246,Abbe Pisoni
25264,Lorenza
25301,Benedetta
25367,Contessina
25534,Martinez Campos
25539,Benedetta
25546,Consistorial - Advocate Morano
25661,Benedetta
25720,Ernesta
25731,Contessina
25757,Dario
25793,Dario
25820,Prince Onofrio
25825,Prada
25913,Corso
25948,Flavia
25992,Jules Laporte
26018,Marchese Montefiore
26043,Boccanera
26063,Cardinal Boccanera
26074,Dario
26155,Dario
26159,Benedetta
26207,Count Prada
26231,Donna Serafina
26234,Benedetta
26243,Dario
26298,Abbe Pierre Froment
26506,Benedetta
26511,Viscount Philibert de la Choue
26522,Pierre
26577,Pierre
26710,Pierre
26798,Pierre
26836,Louis Philippe
27116,Pierre
27188,Madonna
27225,Pierre
27307,Pierre
27459,Victorine
27477,Monsieur l’Abbe
27554,Don Vigilio
27650,Giaccomo
27702,Donna Serafina
27720,Victorine
27749,Don Vigilio
27768,Pierre
27898,Don Vigilio
27901,Monsieur l’Abbe
27922,Pierre
27932,Don Vigilio
27970,Pierre
28035,Donna Serafina
28083,Don Vigilio
28185,Don Vigilio
28191,Pierre
28266,Monsieur l’Abbe Pierre Froment
28285,Pierre
28289,Benedetta
28367,Monsieur l’Abbe
28391,Pierre
28571,Pierre
28660,Monsieur l’Abbe
28683,Monsieur de la Choue
28735,Pierre
28752,Viscount
28806,Monsieur
28824,Pierre
28995,Benedetta
29000,Giaccomo
29011,Don Vigilio
29045,Benedetta
29163,Brandini
29172,Ernesta
29202,Boccaneras
29330,Pierre
29417,Viscount
29441,Monsieur de la Choue
29728,Ercole
29736,Flavio Corradini
29786,Donna Serafina
29791,Pierre
29837,Dario
29845,Celia Buongiovanni
29863,Monsignor Nani
29871,Pierre
29883,Consistorial - Advocate Morano
29894,Viscount de la Choue
29916,Morano
29919,Donna Serafina
29988,Morano
30028,Donna Serafina
30060,Pierre
30068,Don Vigilio
30083,Dario
30097,Celia
30099,Dario
30185,Benedetta
30190,Celia
30213,Dario
30237,Dario
30256,Piazza Navona
30432,Angelo
30455,Dario
30593,Morano
30631,Benedetta
30647,Dario
30748,Angelo
30897,Prati
30948,Morano
30996,Sacco
31002,Sacco
31033,Benedetta
31041,Pierre
31071,Pierre
31095,Dario
31352,Monsieur
31371,Monsignor Nani
31397,Pierre
31426,Celia
31433,Pierre
31456,Nani
31509,Pierre
31574,Donna Serafina
31626,Nani
31651,Pierre
31755,Don Vigilio
31779,Nani
31845,Pierre
31955,Monsignor Nani
31993,Celia
32041,Monsignor Nani
32087,Pierre
32186,Nani
32271,Pierre
32282,Donna Serafina
32304,Pierre
32377,Nani
32446,Benedetta
32489,Boccanera
32525,Contessina
32538,Monsieur l’Abbe
32544,Nani
32572,Don Vigilio
32634,Sarno
32673,Pierre
32737,Pierre
32775,Sarno
32796,Seminario Romano
32982,Nani
33021,Nani
33029,Sarno
33068,Nani
33107,Pierre
33252,Pierre
33268,Charles X
33287,Celia
33295,Sarno
33315,Don Vigilio
33338,Nani
33340,Morano
33344,Donna Serafina
33368,Benedetta
33409,Benedetta
33411,Dario
33414,Celia
33437,Pierre
33445,Benedetta
33509,Pierre
33516,Guido Reni
33525,Beatrice Cenci
33553,Benedetta
33618,Dario
33650,Dario
33732,Dario
33762,Benedetta
33764,Celia
33772,Pierre
33801,Matteo Buongiovanni
33818,Mortimer
33883,Prince Matteo
33995,Celia
34045,Corso
34048,Celia
34101,Attilio Sacco
34111,Sacco
34145,Morano
34151,Celia
34154,Benedetta
34169,Attilio
34205,Benedetta
34259,Celia
34264,Attilio
34302,Pierre
34415,Benedetta
34443,Celia
34457,Attilio
34481,Pierre
34525,Donna Serafina
34548,Don Vigilio
34563,Pierre
34580,Celia
34588,Morano
34597,Sarno
34599,Nani
34629,Benedetta
34633,Celia
34641,Pierre
34709,Pierre
34711,Don Vigilio
34757,Nani
34764,Don Vigilio
34889,Don Vigilio
34898,Pierre
34908,Victorine
35045,Pierre
35257,Donna Serafina
35261,Morano
35279,Benedetta
35285,Monsignor Nani
35412,Pierre
35450,St. Peter
35500,Pierre
35515,Boccanera
35763,Pierre
35865,Bocca
35991,Pierre
35993,Don Vigilio
36038,Don Vigilio
36081,Pierre
36131,Pierre
36195,Raffaelle
36234,Pierre
36413,Augustus
36419,Pierre
36436,Pio Boccanera
36479,Honours
36494,Pius IX
36548,Chamberlain
36557,Leo XIII
36576,Pius IX
36598,Leo
36607,Camerlingo
36644,Pius
36653,Pope
36688,Leo
36726,Pio
36762,Gioachino Pecci
36768,Pope
36781,Pio
36827,Pierre
36832,Don Vigilio
36876,Pierre
37242,Pierre
37365,Boccanera
37429,Donna Serafina
37454,Donna Serafina
37457,Benedetta
37483,Dario
37642,Don Vigilio
37657,Abbe Paparelli
37735,Pierre
37978,Pierre
38059,Abbe Paparelli
38072,Pierre
38081,Don Vigilio
38095,Monsieur
38138,Pierre
38170,Don Vigilio
38199,Abbe Paparelli
38251,Don Vigilio
38278,Pierre
38441,Pierre
38786,Don Vigilio
38804,Contessina
38895,Abbe Paparelli
38908,Pierre
38916,Don Vigilio
38929,Sanguinetti
38942,Paparelli
38962,Eminence
38974,Eminence
38988,Sanguinetti
39327,Leo XIII
39385,Howard
39394,Pierre
39440,Abbe Paparelli
39455,Don Vigilio
39463,Sanguinetti
39466,Boccanera
39528,Boccanera
39571,Sanguinetti
39636,Don Vigilio
39660,Pierre
39691,Don Vigilio
39734,Pierre
39814,Don Vigilio
39890,Abbe Paparelli
39927,Pierre
39982,Cardinal Sanguinetti
40078,Don Vigilio
40113,Abbe Paparelli
40130,Pierre
40143,Pierre Froment
40250,Pio
40277,Pope
40324,Louis Quatorze
40347,Pierre
40351,Boccanera
40473,Boccanera
40557,Pio
40568,Pierre
40876,Pierre
41007,Boccanera
41010,Pierre
41233,Benedetta
41284,Pierre
41338,Monsieur le Vicomte Philibert de la Choue
41379,De la Choue
41404,De la Choue
41520,Pierre
41562,Bergerot
41579,Boccanera
41648,Bergerot
41733,Boccanera
41745,Bergerot
41753,Pierre
41789,Jesus
41853,Pierre
42165,Pierre
42384,Pierre
42470,Boccanera
42534,Pierre
42829,Pierre
43337,Pierre
43376,Boccanera
43383,Abbe Paparelli
43431,Boccanera
43438,Santobono
43459,Paparelli
43573,Pierre
43700,Santobono
43761,Eminence
43785,Paparelli
43848,Santobono
43920,Benedetta
43924,Count Prada
44129,Santobono
44153,Boccanera
44216,Santobono
44254,Garibaldi
44353,Santobono
44380,Sanguinetti
44416,Boccanera
44444,Sanguinetti
44508,Pope
44535,Sanguinetti
44582,Santobono
44643,Agostino
44759,Agostino
44796,Agostino
44845,Agostino
44905,Boccanera
44998,Santobono
45097,Agostino
45212,Sanguinetti
45287,Santobono
45302,Pierre
45521,Santobono
45629,Goldsmith
45671,Santobono
45677,Cardinal
45680,Pierre
45698,Monsieur l’Abbe
45703,Boccanera
45754,Sanguinetti
45927,Boccanera
46026,Pierre
46072,Boccanera
46212,Pierre
46251,Don Vigilio
46298,Pierre
46311,Monsieur Narcisse Habert
46361,Narcisse Habert
46405,Catholics
46459,Sarno
46482,Gamba del Zoppo
46606,Pierre
46657,Bergerot
46749,Botticelli
46779,Pierre
46846,Narcisse
46859,Francis
46871,Pierre
46998,Pierre
47036,Narcisse
47120,Monsignor Gamba del Zoppo
47211,Pierre
47282,Boccanera
47305,Sanguinetti
47320,Narcisse
47337,Pierre
47348,Sanguinetti
47365,Pope
47412,Boccanera
47460,Sanguinetti
47608,Pope
47622,Boccanera
47624,Sanguinetti
47723,Pierre
47725,Narcisse
47729,Monsignor Nani
47753,Nani
47795,Abbe Paparelli
47828,Nani
47832,Narcisse
47856,Nani
47882,Nani
48021,Nani
48063,Nani
48072,Peter
48107,Monsignor Nani
48112,Narcisse
48332,Monsignor Nani
48446,Pierre
48456,Nani
48519,Nani
48573,Monsieur Habert
48621,Monsieur l’Abbe
48625,Monsieur Habert
48657,Theresa
48681,Maria della Vittoria
48702,Pierre
48738,Pierre
48753,Nani
48771,Sanguinetti
48840,Sanguinetti
49052,Nani
49060,Pierre
49148,Pierre
49313,Nani
49430,Pierre
49506,Narcisse
49511,Pierre
49517,Nani
49638,Pierre
49642,Narcisse
49716,Pierre
49739,Nani
49778,Gamba
49780,Gamba
49799,Gamba
49856,Gamba del Zoppo
49919,Gamba
49986,Nani
49996,Gamba
50024,Nani
50123,Nani
50177,Nani
50247,Pierre
50290,Nani
50635,Bergerot
50666,Pierre
50758,Abbe Paparelli
50762,Pierre
50778,Monsignor Nani
50834,Narcisse Habert
50853,Pierre
50931,Don Vigilio
50976,Pierre
51159,Pierre
51299,Pierre
51341,Pierre
51363,Bergerot
51376,Pierre
51393,Cardinal Boccanera
51407,Monsignor Nani
51585,Nani
51689,Don Vigilio
51700,Pierre
51768,Don Vigilio
51772,Nani
51776,Pierre
51835,Pierre
51885,Abbe Paparelli
51977,Pierre
52034,Orlando Prada
52193,Benedetta
52282,Pierre
52297,Viscount Philibert de la Choue
52338,Benedetta
52346,Monsieur l’Abbe
52533,Pierre
52599,Count Orlando Prada
52903,Pius IX
52987,Mazzini
53074,Christ
53097,Giuseppe Garibaldi
53127,Garibaldi
53188,Oudinot
53209,Garibaldi
53216,Manin
53245,Garibaldi
53289,Anita
53388,Gaeta
53405,Orlando
53453,Luigi
53535,Cavour
53570,Victor Emmanuel
53676,Pope
53679,Mazzini
53831,Venetia
53905,Garibaldi
54015,Palermo
54102,Garibaldi
54125,Lamoriciere
54139,Orlando
54197,Aspromonte
54211,Garibaldi
54247,M. Zola
54255,Garibaldi
54270,Frank Vizetelly
54294,Garibaldi
54314,Caprera
54324,Edward Vizetelly
54379,Victor Emmanuel
54464,Venetia
54486,Victor Emmanuel
54540,Garibaldi
54698,Campagna
54715,Victor Emmanuel
54735,Kanzler
54911,Garibaldi
54914,Garibaldi
54928,Mazzini
54963,Luigi
55089,Luigi
55489,Luigi
55544,Luigi
55598,Luigi
55613,Villa Montefiori
55675,Luigi
55712,Pierre
55806,Pierre
55873,Villa Bonaparte
55877,Count Prada
55906,Victor Emmanuel
55919,Pierre
56120,Pierre
56177,Count Orlando Prada
56223,Pierre
56437,Pierre
56600,Orlando
56618,Batista
56632,Pierre
56662,Monsieur Froment
56900,Pierre
56974,Monsieur Froment
57090,Pope
57202,Humbert
57239,Pierre
57394,Mazzini
57630,Mazzini
57670,Christ
57692,Mazzini
57870,Pierre
58129,Pierre
58184,St. Peter
58370,Pierre
58569,Pierre
59538,Pierre
59630,Pierre
59693,Pierre
59739,Pierre
59833,Stefana
59871,Signora Sacco
59892,Pagani
59907,Stefana
59910,Sacco
60070,Sacco
60144,Signora
60192,Sacco
60202,Sacco
60293,Sacco
60319,Luigi
60334,Luigi
60351,Sacco
60358,Sacco
60469,Stefana
60524,Sacco
60551,Sacco
60721,Stefana
60733,Pierre
60794,Attilio
60813,Celia
60818,Buongiovanni
60837,Attilio
60911,Attilio
61178,Stefana
61251,Sacco
61386,Pierre
61440,Benedetta
61497,Luigi
61613,Benedetta
61739,Benedetta
61745,Luigi
61765,Dario
61874,Benedetta
61968,Pierre
62027,Luigi Prada
62191,Luigi
62215,Pierre
62282,Luigi Prada
62422,Pierre
62587,Pierre
62592,Monsieur l’Abbe Pierre Froment
62622,Luigi Prada
62802,Pierre
62829,Villa Montefiori
62972,Luigi
63054,Sacco
63121,Stefana
63128,Sacco
63187,Palazzo Boccanera
63193,Pierre
63208,Count Luigi
63254,Benedetta
63319,Flavia
63324,Benedetta
63543,Dario
63571,Luigi
63661,Benedetta
63751,Benedetta
63754,Morano
63780,Luigi
63814,Lisbeth
63853,Lisbeth Kauffmann
63940,Principe Amadeo
63995,Lisbeth
64037,Prada
64055,Lisbeth
64121,Prada
64136,Lisbeth
64157,Benedetta
64183,Pierre
64188,Lisbeth
64330,M. Zola
64378,Theophile Morin
64528,Luigi Prada
64878,Boccanera
65037,Luigi
65168,Pierre
65389,Prince Dario Boccanera
65477,Monsieur l’Abbe Froment
65485,Prince
65506,Benedetta
65558,Pierre
65624,Dario
65692,Piazza di Venezia
65698,Corso
65757,Pierre
65777,Piazza del Popolo
65812,Corso
65892,Dario
65900,Bonaparte
65904,Odescalchi
65906,Sciarra
65909,Chigi
65918,Marcus Aurelius
65922,Piazza Colonna
65952,Piazza del Popolo
66013,Pierre
66047,Piazza Colonna
66062,Monti
66088,Piazza di Venezia
66118,Dario
66196,Corso
66273,Pierre
66280,Corso
66377,Corso
66421,Dario
66435,Pierre
66494,Pierre
66553,Dario
66590,Attilio
66598,Sacco
66608,Pierre
66619,Attilio
66690,Dario
66768,Corso
66870,Corso
66949,Celia
66959,Attilio
67244,Celia
67278,Dario
67280,Pierre
67291,Attilio
67318,Pierre
67326,Celia
67370,Attilio
67399,Dario
67416,Pierre
67421,Attilio
67484,Dario
67501,Corso
67633,Pierre
67687,Pierre
67748,Dario
67766,Pierre
67841,Dario
67856,Prince
67865,La Tonietta
67905,Dario
67910,La Tonietta
67979,Marquis Manfredi
68010,Corso
68079,Dario
68123,Pierre
68129,Viscount de la Choue
68142,Prince Onofrio Boccanera
68195,Pierre
68205,Jules Laporte
68237,Laporte
68246,Marquis Montefiori
68286,Pierre
68343,Marquis
68482,Peter
68490,Dario
68612,Peter
68850,Pierre
68868,St. Peter
69176,St. Peter
69195,Pierre
69214,Boccanera
69305,Narcisse Habert
69313,Pierre
69315,Monsignor Gamba del Zoppo
69347,Pierre
69375,Nani
69459,Pierre
69545,Monsieur l’Abbe
69561,Monsieur l’Abbe
69617,Pierre
69723,Tiberius
69788,Romulus
69790,Remus
69811,Pierre
69882,Pierre
70072,Augustus
70090,Pierre
70359,Septimius Severus
70364,Pierre
70515,Pierre
70550,Severus
70570,Campagna
70827,Pierre
70963,Pierre
71313,Vespasian
71317,Domitian
71342,Pierre
71392,Domitian
71402,Caligula
71515,Evander
71533,Romulus
71548,Monsieur l’Abbe
71607,Caligula
71676,Caligula
71717,Cassius Chaereas
71825,Pierre
71906,Pierre
71955,Monsieur l’Abbe
71970,Caligula
71977,Pierre
72156,Pierre
72324,Caffarelli
72392,Peter
72553,Pierre
72671,Julia
72691,Septimius Severus
72706,Vespasian
72752,Phocas
72798,Pollux
72837,Romulus
72978,Sylla
72990,Cicero
73182,Pierre
73259,Constantine
73716,Pierre
73785,Alba Longa
73837,Pierre
74002,Romulus
74121,Caesar
74133,Gaul
74136,Pharsalia
74177,Augustus
74227,Augustus
74397,Augustus
74438,Imperator
74485,Octavius
74494,Augustus
74846,Augustus
74950,Augustus
74962,Pierre
75056,Tiberius
75092,Jove
75122,Claudius
75124,Nero
75187,Otho
75190,Vitellius
75241,Vespasian
75256,Domitian
75308,Domitian
75317,Tiberius
75427,Septimius Severus
75512,Pierre
76044,Romulus Augustulus
76252,Septimius Severus
76271,Gelasius II
76288,Augustus
76334,Frangipani
76351,Constantine
76548,Domitian
76561,Pierre
76863,Marcellus
76899,Pierre
76998,Via Giulia
77041,Appian Way
77054,Campagna
77070,Pierre
77196,Caecilia Metella
77201,Casale Rotondo
77264,Campo Santo
77319,Caecilia Metella
77470,Sextius Pompeius Justus
77476,Marcus Servilius Quartus
77480,Hilarius Fuscus
77483,Rabirius Hermodorus
77571,Messalla Corvinus
77582,Augustus
77584,Horace
77593,Aurelius Messallinus Cotta
77600,Pierre
77613,Caecilia Metella
77625,Casale Rotondo
77715,Campagna
77805,Albano
77916,Pierre
78327,Pierre
78425,Cardinal Boccanera
78474,Pierre
78538,Pierre
78617,Pierre
78644,Campagna
78768,Cardinal Boccanera
78805,Pierre
78901,Pierre
79005,Pierre
79157,Pierre
79770,Pierre
80026,Jesus Christ
80156,Sixtus II
80176,Pope Damasus
80209,Cecilia
80249,Lazarus
80255,Jonas
80262,Daniel
80277,Christ
80334,Pierre
80745,Pierre
81279,Pierre
81555,Augustus
81613,Diocletian
81794,Jesus Christ
81813,Pierre
81818,Peter
81840,Bernini
81913,Pierre
81959,Pierre
82103,St. Peter
82154,Bernini
82312,Pierre
82406,Pierre
82493,Pierre
82556,Pierre
82562,Capella Clementina
82679,Pierre
82793,Pierre
82932,Pierre
83113,Pierre
83705,Pierre
83835,Faustina
84002,Agnes
84037,Serapis
84066,Juno Lucina
84102,Jove
84153,Basilica of San Giovanni
84366,St. Peter
84969,Jesus
85021,Pierre
85071,Campagna
85438,Paul III
85479,Gregory XIII
85492,Alexander VII
85516,Clement XIII
85606,Pierre
85724,Caesars
85734,Augustus
85756,Augustus
85902,Monsignor Nani
85965,Abbe Pisoni
85968,Benedetta
85982,Donna Serafina
86001,Nani
86039,Don Vigilio
86054,Pio
86066,Pierre
86116,Pierre
86122,Victorine Bosquet
86234,Benedetta
86287,Victorine
86309,Morano
86360,Monsignor Palma
86374,Benedetta
86405,Count Prada
86432,Benedetta
86561,Monsignor Palma
86598,Contessina
86602,Victorine
86631,Monsignor Palma
86674,Abbe Pisoni
86708,Countess Ernesta
86810,Contessina
86816,Dario
86883,Pierre
86956,Donna Serafina
86960,Morano
86980,Lorenza
87014,Morano
87056,Donna Serafina
87118,Pierre
87155,Benedetta
87157,Celia
87167,Dario
87170,Cardinal Sarno
87206,Donna Serafina
87248,Morano
87264,Pierre
87341,Pierre
87369,Monsignor Nani
87375,Donna Serafina
87387,Nani
87457,Donna Serafina
87603,Dario
87664,Pierre
87694,Celia
87732,Benedetta
87743,Monsignor Palma
87773,Dario
87861,Pierre
87870,Benedetta
87957,Celia
88036,Sarno
88124,Donna Serafina
88151,Monsignor Nani
88195,Narcisse Habert
88215,Sarno
88279,Pierre
88314,Monsignor Gamba del Zoppo
88376,Pierre
88422,Narcisse
88428,Dario
88432,Benedetta
88434,Celia
88562,Pierre
88603,Pierre
88616,Piazza
88637,Bernini
88805,Pierre
88945,Pierre
89072,Jesus
89125,Pierre
89135,Monsignor Nani
89158,Assessor
89172,Pierre
89182,Monsieur Habert
89193,Monsignor Gamba del Zoppo
89213,Nani
89284,Gamba
89357,Pierre
89480,Monsignor Nani
89563,Leo XIII
89604,Jesus
89621,Pierre
89629,Nani
89682,Nani
89691,Pierre
89776,Nani
89796,Pierre
89969,Pierre
90163,Pierre
90167,Narcisse Habert
90212,Michael Angelo
90254,Botticelli
90271,Pierre
90298,Michael Angelo
90420,Pierre
90422,Michael Angelo
90576,Pierre
90841,Pierre
90890,Jehovah
90922,Adam
90929,Jehovah
91141,Jeremiah
91208,Isaiah
91265,Jonah
91597,Pierre
91607,Michael Angelo
91635,Roselli
91637,Signorelli
91640,Botticelli
91661,Narcisse
91697,Botticelli
91702,Botticelli
91757,Pierre
91819,Moses
91824,Jethro
91878,Botticelli
92029,Botticelli
92181,Pierre
92192,Narcisse
92226,Botticelli
92254,Michael Angelo
92259,Narcisse
92403,Narcisse
92432,Michael Angelo
92515,Pierre
92550,Michael Angelo
92643,Michael Angelo
92669,Narcisse
92783,Pierre
92874,Corneille
92876,Lamartine
92932,Michael Angelo
93013,Pierre
93071,Raffaelle
93102,Pope St. Leo
93106,Attila
93134,Michael Angelo
93196,Narcisse
93198,Pierre
93228,Raffaelle
93243,Pierre
93292,Pierre
93399,Pope
93472,Pierre
93521,Pierre
93549,Narcisse
93571,Gamba del Zoppo
93602,Narcisse
93639,Habert
93728,Pierre
93809,Piazza della Sagrestia
93871,St. Peter
93934,Zecca
94037,Narcisse
94039,Pierre
94105,Pierre
94500,Byron
94521,Narcisse
94523,Pierre
94632,Narcisse
94644,Monsignor Gamba
94837,Julius II
94840,Leo X
94908,Venus
94921,Nicholas V
94953,Perugino
94955,Botticelli
94967,Michael Angelo
94970,Raffaelle
94990,Caravaggio
95017,Bernini
95069,St. Peter
95146,Bernini
95150,Bernini
95154,Narcisse
95189,Bramante
95205,Michael Angelo
95208,Raffaelle
95219,Bernini
95223,Bernini
95305,Daphne
95307,Bernini
95335,Santa Teresa
95421,Aeneas
95452,Narcisse
95459,Pierre
95582,Michael Angelo
95585,Raffaelle
95622,Jehovah
95630,Raffaelle
95651,Pierre
95706,Narcisse
95724,Leo XIII
96132,Leo XIII
96148,Narcisse
96279,Narcisse
96284,Pierre
96336,Paul II
96361,Julius II
96364,Leo X
96461,Christ
96503,Pierre
96517,Pius IX
96566,Corso
96636,Piazza del Popolo
96651,Leo XIII
96708,Pope
96718,Pope
96783,Michael Angelo
96786,Raffaelle
96938,Bacchus
97042,Michael Angelo
97107,Peter
97130,Venus
97180,Narcisse
97240,Narcisse
97242,Pierre
97296,Pierre
97305,Monsignor Gamba del Zoppo
97322,Narcisse
97432,Sant
97542,Giovanni Vesanzio
97551,Pius IV
97629,Narcisse
97631,Pierre
97715,Leo IV
97742,Narcisse
97755,Pierre
97765,Pope
97966,Leo XIII
98013,Pierre
98122,Leo XIII
98211,Pierre
98230,Lourdes
98306,Narcisse
98316,Pius IX
98327,Lourdes
98340,Leo XIII
98353,Pierre
98490,Pierre
98738,Narcisse
98763,Monsignor Gamba del Zoppo
98825,Gamba
98845,Leo XIII
99031,Narcisse
99107,Pierre
99229,Gamba del Zoppo
99271,Leo XIII
99282,Pierre
99387,Pope
99541,Narcisse
99562,Leo XIII
99631,Pierre
99642,Piazza
99644,St. Peter
100018,Jupiter Capitolinus
100081,Michael Angelo
100084,Raffaelle
100110,Piazza
100130,Narcisse
100188,Pierre
100235,M. de la Choue
100246,Benedetta
100278,Victorine
100297,Pierre
100403,Pierre
100447,Dario
100487,Benedetta
100626,Dario
100642,Pierre
100700,Benedetta
100716,Pierre
100742,Monsieur l’Abbe
100798,Victorine
100823,Contessina
100826,Victorine
100847,Dario
100870,Pierre
100878,Monsieur l’Abbe
100903,Dario
101092,Monsieur l’Abbe
101154,Dario
101271,Dario
101325,Pierre
101361,Dario
101539,Benedetta
101559,Pierre
101715,Pierre
101723,Benedetta
101751,Benedetta
101806,Madonna
101867,Dario
102045,Dario
102141,Pierre
102258,Pierre
102326,Ercole
102333,Flavio
102345,Benedetta
102349,Pierre
102361,Monsieur l’Abbe
102427,Pierre
102614,Count Prada
102695,Benedetta
102791,Benedetta
102802,Pierre
102850,Monsieur l’Abbe
102858,Dario
103005,Pierre
103022,Victorine
103165,Benedetta
103227,Pierre
103254,Benedetta
103325,Venus
103327,Hercules
103389,Pierre
103417,Monsignor Nani
103500,Nani
103544,Pierre
103626,Peter
103696,Pierre
103818,Nani
103854,Gamba del Zoppo
103960,Nani
103962,Pierre
104007,Pierre
104011,Viscount Philibert
104033,Peter
104039,Viscount
104091,Baron de Fouras
104109,M. de la Choue
104117,Baron
104139,Viscount
104171,Pierre
104340,Viscount
104414,Pierre
104510,Sala Ducale
104515,Pierre
104723,Pierre
104890,Baron de Fouras
105058,Pierre
105060,Monsignor Nani
105115,Nani
105216,Pierre
105258,Cardinal Boccanera
105286,Cardinal Sanguinetti
105306,Baron de Fouras
105311,Nani
105636,Pierre
105679,Leo XIII
105733,Baron de Fouras
105935,Leo XIII
106176,Pierre
106179,Leo XIII
106424,Pierre
106519,Peter
106741,Baron de Fouras
106786,Pierre
106802,Lourdes
106830,Lourdes
106842,Leo XIII
106845,Pierre
106875,Pope
106895,Nani
106930,Nani
106986,Lourdes
106993,Bernadette
107013,Pierre
107211,Leo XIII
107415,Leo XIII
107717,Pierre
107744,Nani
107796,Nani
107835,Pierre
107895,Pierre
107914,Narcisse Habert
107982,Giotto
108044,Pierre
108048,Nani
108050,Narcisse
108083,Pope
108131,Pierre
108283,Peter
108304,Peter
108590,Pierre
108617,Lourdes
108719,Piazza
108721,St. Peter
108727,Narcisse
108729,Monsignor Nani
108861,Pierre
108902,Leo XIII
108975,Narcisse
108978,Nani
109111,Pierre
109134,Narcisse
109263,Peter
109279,Leo XIII
109401,Narcisse
109407,Nani
109449,Pierre
109492,Monsieur Habert
109678,Pope
109717,Pius IX
109733,Leo XIII
109864,Leo XIII
110027,Pierre
110032,Nani
110058,Monsieur Habert
110117,Pius IX
110244,Peter
110350,Pierre
110372,Peter
110533,Narcisse
110539,Nani
110770,Pierre
110927,Leo XIII
111065,Pierre
111084,Leo XIII
111161,Monsignor Nani
111193,Mocenni
111337,Nani
111368,Monsieur Habert
111381,Monsieur Habert
111384,Monsieur Habert
111438,Narcisse
111548,Nani
111552,Pierre
111653,Pierre
111655,Nani
111681,Narcisse
111711,Nani
111749,Pierre
111916,Pierre
112000,Pierre
112172,Pierre
112285,Pierre
112382,St. Peter
112435,Pope
112670,Pierre
112780,Benedetta
112782,Donna Serafina
112842,Pierre
113811,Leo XIII
113815,Pierre
113818,Pope
114085,Pierre
114092,Pope
114105,Nani
114441,Bernini
114639,Leo XIII
115079,Pierre
115239,Pierre
115315,Pierre
115443,Pierre
115527,Pierre
115616,Pierre
115688,Pierre
115857,Peter
116083,Leo
116096,Pierre
116139,Roman Campagna
116251,Pierre
116292,Peter
116389,Pierre
116560,Septimius Severus
116674,Sant
116724,Sant
116726,Andrea della Valle
116757,Pierre
116838,Pierre
117008,Augustus
117045,Septimius Severus
117231,Christ
117349,Pierre
117402,Pius IX
117405,Leo XIII
117497,Leo XIII
117656,Civitas Leonina
117738,Christ
117882,Pierre
117993,Pierre
118182,Christ
118216,Monseigneur Bergerot
118317,Pierre
118342,St. Peter
118576,Pierre
118691,Peter
118698,Leo XIII
118749,St. Peter
118786,Pierre
118922,Nani
119012,Pierre
119079,Pierre
119159,Pierre
119221,Pierre
119341,Abbe Rose
119371,Pierre
119374,Benedetta
119506,Benedetta
119575,Pierre
119730,Pierre
119848,Abbe Rose
119853,Benedetta
120023,Pierre
120112,Benedetta
120123,Dario
120177,La Tonietta
120247,Benedetta
120390,Pierre
120570,Pierre
120669,Benedetta
120681,Pierre
120732,Donna Serafina
120740,Nani
120752,Sarno
120759,Donna Serafina
120790,Morano
120807,Benedetta
120809,Celia
120811,Dario
120813,Pierre
120816,Narcisse Habert
120829,Prince
120867,Narcisse
120898,Dario
120951,Benedetta
121046,Pierina
121064,Pierina
121179,Celia
121190,Dario
121205,Dario
121212,Celia
121291,Narcisse
121416,Benedetta
121419,Celia
121449,Dario
121451,Dario
121467,Contessina
121516,Prati
121563,Benedetta
121582,Monsieur l’Abbe Froment
121613,Pierre
121765,Prati
121767,Dario
121816,Monsieur l’Abbe
121893,Donna Serafina
121903,Dario
121930,Monsieur l’Abbe
122017,Narcisse
122025,Pierre
122112,Benedetta
122171,Contessina
122184,Monsieur l’Abbe
122254,Dario
122260,Dario
122321,Dario
122423,Donna Serafina
122442,Celia
122522,Pierre
122524,Narcisse
122529,Sant
122568,Narcisse
122585,Bernini
122588,Santa Teresa
124236,Sant
124271,Sant
124418,Narcisse
124429,Pierre
124450,Construzione
125438,Narcisse
125606,Dario
125608,Prince Boccanera
125644,Dario
125660,Villa Montefiori
125673,Prince Onofrio
125676,Dario
125760,Boccanera
125764,Flavia Montefiori
125857,Flavia
125890,Marquis Montefiori
125904,Dario
125990,Donna Serafina
126029,Dario
126033,Benedetta
126042,Narcisse
126137,Prati
126226,Leo X
126239,Pierre
126250,Sant
126298,St. Peter
126617,Pierre
126910,Pliny
126914,Julius Caesar
126937,Pierre
127330,Pierre
127332,Narcisse
127638,Narcisse
127650,Benedetta
127692,Dario
127729,Contessina
127735,Pierre
127737,Narcisse
127768,Dario
128214,Dario
128480,Benedetta
128565,Benedetta
128576,Pierre
128618,Dario
128651,Pierre
128682,Narcisse
128709,Benedetta
128738,Dario
128935,Benedetta
128976,Pierina
129077,Dario mio
129132,Pierre
129140,Narcisse
129218,Pierina
129441,Tomaso Gozzo
129452,Pierina
129455,Tito
129532,Prati
129541,Tomaso
129543,Tito
129553,Pierina
129611,Tomaso
129616,Ambrogio
129639,Tomaso
129653,Tito
129690,Pierina
129805,Giacinta
129868,Benedetta
129894,Dario mio
129920,Monsieur Habert
129929,Dario
130059,Pierina
130126,Benedetta
130162,Gozzo
130274,Tomaso
130318,Giacinta
130378,Pierre
130380,Narcisse
130399,Benedetta
130408,Dario
130432,Contessina
130471,Pierre
130624,Tomaso
130815,Ambrogio
130875,Ambrogio
131028,Ambrogio
131031,Mazzini
131062,Garibaldi
131144,Tomaso
131233,Tomaso
131302,Pierre
131410,Ambrogio
131420,Contessina
131457,Tomaso
131521,Narcisse
131559,Giacinta
131579,Pierina
131584,Dario
131598,Tito
131832,Giacinta
131927,Tito
131962,Tito
132007,Pierre
132031,Tito
132132,Pope
132150,Pierre
132181,Tito
132248,Pierre
132386,Benedetta
132398,Pierre
132400,Narcisse
132406,Dario
132485,Prince
132510,Pierina
132523,Dario
132550,Tito
132699,Benedetta
132701,Dario
132728,Contessina
132739,Pierre
132759,Narcisse
132779,Piazza
132808,Dario
132831,Pierre
132844,Narcisse
133100,Tito
133137,Madonna
133597,Pierre
133809,Narcisse
133811,Pierre
134082,Pierre
134240,Pope
134333,St. Francis
134390,Francis
134410,Pierre
134412,Narcisse
134416,Piazza
134418,St. Peter
134517,Narcisse
134631,Pierre
134655,Narcisse
134715,St. Peter
134767,Narcisse
134796,Antonelli
134840,Antonelli
134850,Simeoni
134865,Leo XIII
134885,Folchi
134911,Dataria
134930,Monsignor Folchi
135026,Peter
135038,Monsignor Folchi
135135,Pope
135155,Sterbini
135164,Folchi
135230,Leo XIII
135569,Monsignor Folchi
135600,Monsignor Folchi
135614,Leo XIII
135652,Monsignor Folchi
135679,Peter
135741,M. Zola
135837,Narcisse
135844,Pierre
135871,Narcisse
135895,Peter
135986,Pierre
136091,Christ
136096,Jesus
136328,Pierre
136351,Pope
136374,Pope
136419,Pope
136472,Pope
136548,Pope
136650,Narcisse
136698,Pierre
136751,Narcisse
136795,Pierre
136843,Pierre
136865,St. Peter
136878,Leo XIII
136894,Campagna
136901,Alban
136926,Santa Maria Maggiore
136955,Sant
136974,Sant
136976,Andrea della Valle
137010,Leo XIII
137029,Sant
137068,Septimius Severus
137108,Villa Medici
137171,Leo
137249,Leo XIII
137305,Pierre
137310,Leo XIII
137478,Pope
137610,Pierre
137621,Leo XIII
137968,Pierre
137971,Leo XIII
137979,Campagna
137984,Alban
138506,Pierre
138546,Pope
138922,Jesus
138931,Pierre
138941,Leo XIII
138951,Narcisse
139111,Pierre
139118,Narcisse
139253,Leo XIII
139345,Benedetta
139348,Pierre
139371,Celia
139399,Dario
139441,Benedetta
139490,Dario
139530,Monsieur l’Abbe
139548,Dario
139600,Celia
139615,Pontecorvo
139618,Moretta
139626,La Tonietta
139631,Dario
139649,Pierre
139654,Prince
139713,Benedetta
139729,Dario
139809,Victorine
139817,Celia
139822,Benedetta
139825,Pierre
139854,Celia
139888,Benedetta
139938,Dario
139977,Attilio
140054,Attilio
140098,Pierre
140100,Benedetta
140130,Benedetta
140275,Pierre
140390,Nani
140428,Donna Serafina
140457,Lorenza
140506,Pisoni
140515,Benedetta
140530,Nani
140586,Pierre
140688,Benedetta
140880,Don Vigilio
140979,Victorine
141004,Benedetta
141043,Dario
141045,Monsieur Dario
141084,Monsieur Dario
141124,Benedetta
141195,Monsieur l’Abbe
141214,Pierre
141223,Victorine
141254,Benedetta
141276,Victorine
141326,Dario
141381,Benedetta
141482,Victorine
141620,Abbe
141692,Benedetta
141733,Victorine
141741,Pierre
141808,Dario
141876,Victorine
141902,Contessina
141915,Donna Serafina
141932,Don Vigilio
141940,Monsieur Dario
141988,Dario
142016,Giordano
142026,Contessina
142060,Benedetta
142062,Pierre
142129,Dario
142248,Pierre
142312,Victorine
142335,Dario
142677,Prada
142720,Dario
142724,Benedetta
142759,Dario
142839,Pierre
142889,Contessina
143020,Madonna
143112,Pierre
143418,Benedetta
143457,Victorine
143462,Giordano
143539,Boccanera
143572,Victorine
143576,Pierre
143580,Dario
143611,Prince
143758,Dario
143776,Benedetta
143848,Dario
143930,Giordano
144023,Pierre
144046,Dario
144056,Benedetta
144093,Donna Serafina
144146,Pierre
144162,Benedetta
144173,Victorine
144208,Monsieur
144210,La Pierina
144257,Pierre
144264,Dario
144281,Victorine
144293,Tito
144428,Benedetta
144471,Pierre
144491,Giulia
144507,Julius II
144543,Piazza
144545,St. Peter
144551,Pierre
144563,Marquis de Coure
144651,Jason
144955,Pierre
145108,Louis XIV
145114,Pierre
145173,Corso Vittorio Emanuele
145217,Corso
145250,Banchi Vecchi
145256,Pellegrino
145352,Pagnotta
145401,Pierre
145422,Confraternita della Morte
145485,Pierre
145717,Pierre
145831,Sant
145841,Pierre
145873,Ponte Sisto
145877,Ponte Sant
146185,Sant
146202,Pierre
146356,Pierre
146430,Pierre
146449,Noah
146597,Pierre
146599,La Pierina
146622,Dario
146642,Victorine
146670,Prince
146784,Dario
146807,Pierre
146883,Pierre
146902,Benedetta
146958,Madonna
146979,Madonna
147058,Dario
147078,Pierre
147128,Dario
147202,Benedetta
147252,Villa Borghese
147257,Roman Bois de Boulogne
147291,Pierre
147377,Pincio Pierre
147407,Peter
147421,Villa Albani
147425,Villa Pamphili
147513,Pierre
147545,St. Peter
147657,Campagna
147686,Pierre
147697,Villa Mattei
147740,Pierre
147810,Dominic
147943,Pope Julius
148026,Raffaelle
148131,Pierre
148142,Villa Medici
148317,Pierre
148435,Pierre
148604,Louis XIV
148615,Pierre
148618,Dario
148620,Benedetta
148636,Villa Montefiori
148703,Pierre
148729,Benedetta
148748,Donna Serafina
148794,Dario
148847,Leo XIII
148930,Morano
148973,Pierre
149055,Monsignor Nani
149058,Viscount Philibert de la Choue
149075,Benedetta
149077,Dario
149079,Pierre
149096,Benedetta
149112,Monsignor Palma
149207,Benedetta
149212,Boccanera
149241,Boccanera
149256,Donna Serafina
149274,Lorenza
149282,Collegio Germanico
149313,Prada
149431,Benedetta
149433,Dario
149445,Donna Serafina
149469,Monsignor Palma
149523,Morano
149625,Benedetta
149627,Donna Serafina
149636,Monsignor Nani
149676,Monsignor Palma
149852,Donna Serafina
149859,Pierre
149862,Dario
149866,Benedetta
149917,Dario distrustfully
149959,Benedetta
149989,Monsignor Palma
150019,Dario
150065,Pierre
150170,Piazza di Spagna
150201,Piazza Colonna
150234,Marcus Aurelius
150253,Piazza Navona
150281,Campo dei Fiori
150322,Pierre
150331,Piazza
150448,Marcus Aurelius
150571,Romulus
150584,Pierre
150586,Benedetta
150588,Dario
150649,Piazza delle Tartarughe
150662,Bernini
150707,Pierre
150773,Pierre
150897,Campagna
150904,Ponte Molle
150940,Poussin
151079,Campagna
151119,Pierre
151135,Celia
151140,Benedetta
151146,Dario
151153,Monsieur
151186,Dario
151234,Pierre
151294,Pierre
151454,Pierre
151514,Dario
151516,Benedetta
151524,Pierre
151539,Celia
151798,Dario
151802,Celia
151822,Campagna
151846,Prince
151873,Benedetta
152004,Dario
152007,Corso
152101,Prince
152112,Celia
152173,Dario
152203,Dario
152207,Corso
152284,Benedetta
152294,Dario
152408,Celia
152418,Benedetta
152437,Dario mio
152615,Benedetta
152694,Prince
152699,Monsieur l’Abbe
152711,Pierre
152727,Benedetta
152805,Pierre
152912,Celia
152944,Dario
153014,Pierre
153414,Marino
153596,Pierre
153992,Pierre
154017,Pettinari
154020,Via dei Giubbonari
154471,Pierre
154480,Piazza Farnese
154531,Narcisse Habert
154694,Annibale Caracci
155022,Pope Paul III
155167,Pierre
155266,Prince Aldobrandini
155338,Prince
155351,Palazzo Sciarra
155428,Palazzo Borghese
155766,Pierre
156192,Pierre
156223,Victorine
156462,Pierre
156777,Pierre
157028,Campagna
157356,Pierre
157416,Pierre
157565,Pierre
157655,Pierre
157657,Dario
157663,Victorine
157704,Monsieur l’Abbe
157757,Prince
157806,Dario
157817,Pierre
157841,Tito
157865,Benedetta
157941,Dario mio
158007,Monsignor Palma
158056,Contessina
158205,Morano
158210,Prada
158252,Dario
158257,Benedetta
158447,Monsignor Palma
158471,Dario
158476,Benedetta
158705,Pierre
158716,Monsieur l’Abbe
158732,Monsignor Nani
158816,Nani
158832,Fornaro
158842,Pierre
158922,Pierre
158974,Don Vigilio
159034,Pierre
159051,Don Vigilio
159098,Pierre
159187,Don Vigilio
159204,Pierre
159209,Monsignor Nani
159217,Contessina
159273,Fornaro
159297,Don Vigilio
159305,Nani
159355,Monsignor Fornaro
159380,Sanguinetti
159411,Don Vigilio
159474,Monsieur Froment
159564,Boccanera
159658,Pierre
159729,Don Vigilio
159810,Don Vigilio
159835,Pierre
159844,Sanguinetti
159904,Cardinal Boccanera
160014,Pierre
160082,Pierre
160087,Sanguinetti
160135,Pierre
160164,Pierre
160189,Fornaro
160197,Don Vigilio
160227,Sarno
160236,Donna Serafina
160245,Sarno
160273,Narcisse Habert
160300,Pierre
160383,Pierre
160502,Sarno
160604,Pierre
160694,Pierre
160791,Pierre
161343,Pierre
161558,Pierre
161866,M. Zola
161941,M. Zola
161977,Narcisse
161980,Pierre
162155,Pierre
162356,Pierre
162365,Sarno
162444,Pierre
162514,Pierre
162665,Monsieur l’Abbe
162766,Pierre
162935,Donna Serafina
163013,Pierre
163136,Nani
163150,Nani
163159,Nani
163172,Monsignor Fornaro
163186,Sarno
163218,Nani
163232,Fornaro
163283,Pierre
163301,Piazza Navona
163314,Fornaro
163353,Pierre
163373,Fornaro
163394,Seminario Romano
163423,Maria Maggiore
163466,Monsignor Fornaro
163504,Pierre
163600,Pierre
163716,Piazza Navona
163751,Monsieur
163794,Pierre
163822,Sarno
164008,Fornaro
164105,Pierre
164175,Monsignor Nani
164198,Fornaro
164236,Nani
164335,Monsignor Nani
164353,Monsieur Froment
164381,Pierre
164543,Pierre
164571,Bergerot
164615,Fornaro
164717,Bergerot
164749,Pierre
164834,Fornaro
164842,Pierre
165190,Pierre
165206,Monsignor Fornaro
165317,Pierre
165348,Monsieur Froment
165453,Pierre
165534,Jesus
165660,Fornaro
165752,Pierre
165834,Pierre
165905,Fornaro
165940,Monsieur Froment
166035,Pierre
166279,Dangelis
166303,Piazza
166329,Pierre
166336,Piazza Navona
166466,Corso
166479,Piazza di Spagna
166514,Pierre
166575,St. Francis
166762,Thomas
166882,Pierre
167080,Pierre
167089,Dangelis
167246,Monsieur
167251,Pierre
167289,Dangelis
167338,Monsieur l’Abbe
167392,Pierre
167542,Pierre
167564,Fornaro
167583,Pierre
167669,Nani
167711,Nani
167734,Dangelis
167775,Monsignor Nani
167832,Pierre
167888,Don Vigilio
167942,Pierre
167979,Abbe Paparelli
167996,Pierre
168034,Don Vigilio
168082,Pierre
168168,Pierre
168220,Pierre
168312,Pierre
168333,Sarno
168335,Monsignor Fornaro
168340,Dangelis
168402,Sarno
168426,Fornaro
168429,Fornaro
168446,Pierre
168540,Father Dangelis
168632,Don Vigilio
168644,Pierre
168700,Boccanera
168724,Monsignor Fornaro
168749,Don Vigilio
168847,Bergerot
168911,Bergerot
169127,Pierre
169170,Peter
169306,Bergerot
169320,Pierre
169375,Pierre
169431,Pierre
169478,Father Dangelis
169530,Pierre
169539,Monsignor Fornaro
169638,Bastille
170185,Pierre
170201,Don Vigilio
170253,Don Vigilio
170287,Pierre
170745,Cardinal Boccanera
170900,Pierre
170943,Don Vigilio
170983,Pierre
171066,Don Vigilio
171095,St. Francis
171101,Dominic
171153,Ignatius de Loyola
171752,Pascal
171914,Pierre
171948,Collegio Romano
172107,Don Vigilio
172148,Pierre
172172,Nani
172185,Don Vigilio
172225,Collegio Romano
172467,Pierre
172569,Pierre
172576,Nani
172598,Don Vigilio
172673,Nani
172679,Benedetta
172735,Pope
172739,Nani
172747,Donna Serafina
172759,Prada
172763,Benedetta
172786,Abbe Pisoni
172815,Lorenza
172833,Collegio Germanico
172879,Nani
172924,Donna Serafina
172934,Palma
172993,Benedetta
172995,Dario
173046,Boccanera
173082,Don Vigilio
173152,Boccanera
173264,Pierre
173345,Nani
173381,Don Vigilio
173416,Dangelis
173463,Nani
173472,Dangelis
173499,Monsieur de la Choue
173538,Pierre
173564,Nani
173699,Lourdes
173752,Monsieur de la Choue
173767,Pierre
173888,Don Vigilio
173938,Pierre
174028,Mon Dieu
174063,Fornaro
174068,Fornaro
174086,Collegio Romano
174161,Sanguinetti
174192,Sanguinetti
174244,Leo XIII
174310,Cardinal Boccanera
174441,Leo XIII
174446,Pierre
174450,Don Vigilio
174464,Leo XIII
174512,Thomas
174551,Pope
174662,Pierre
174743,Paparelli
174755,Don Vigilio
175025,Pierre
175234,Jesus
175358,Don Vigilio
175435,Dangelis
175454,Monsignor Nani
175473,Pierre
175486,Monsignor Nani
175554,Don Vigilio
175617,Pierre
175653,Pierre
175977,Pierre
175996,Don Vigilio
176121,Nani
176241,Pierre
176257,Don Vigilio
176398,Leo XIII
176464,Pierre
176510,Francis
176513,Narcisse Habert
176520,Pierre
176648,St. Francis
176978,Dante
177082,Pierre
177220,Thomas
177362,Pierre
177394,Leo XIII
177665,Pierre
177834,Pierre
178227,Pierre
178272,Santa Maria Maggiore
178471,Pierre
178629,Sant
178730,Jesus
178743,Sant
178745,Agostino
178749,Madonna del Parto
178862,Pierre
179185,Monsignor Fornaro
179270,Pierre
179409,Pierre
179541,Pierre
179609,Bramante
179634,Sarno
179854,Pierre
179979,Pierre
180152,Sarno
180295,Cardinal Sarno
180472,Pierre
180514,Pope
180849,Faure
180866,Lyons
180917,Pierre
181007,Horace
181230,Piazza
181232,St. Peter
181236,Pierre
181346,Don Vigilio
181400,Pierre
181412,Nani
181439,Pierre
181505,St. Peter
181614,Pierre
181622,Sant
181631,St. Peter
181804,Pierre
181966,Pierre
181978,Nani
182080,Monsignor Nani
182160,Pierre
182186,Don Vigilio
182203,Pierre
182213,Sarno
182215,Monsignor Fornaro
182219,Dangelis
182304,Monsignor Nani
182441,Nani
182459,Sanguinetti
182591,Pierre
182607,Pierre
182617,Sanguinetti
182674,Rocco
182734,Campagna
182836,Pierre
182886,Campagna
182992,Pierre
182995,Luigi Prada
183102,Pierre
183110,Boccaneras
183135,Giacomo della Porta
183179,Roman Campagna
183200,Benedetta
183312,Pierre
183432,Lisbeth Kauffmann
183525,Benedetta
183531,Prada
183564,Pierre
183627,Prada
183749,Monsieur l’Abbe
183766,Pierre
183854,Pierre
183934,Prada
183945,Sanguinetti
184037,Prada
184155,Pierre
184187,Boccanera
184251,Prada
184288,Sanguinetti
184290,Santobono
184454,Prada
184465,Santobono
184483,Nemi
184668,Santobono
184765,Prada
184774,Sanguinetti
184890,Santobono
184900,Leo XIII
184905,Sanguinetti
184925,Pierre
185024,Sanguinetti
185060,Sanguinetti
185195,Sanguinetti
185327,Sanguinetti
185342,Leo XIII
185389,Sanguinetti
185491,Pio Boccanera
185559,Boccanera
185566,Sanguinetti
185599,Pio
185606,Benedetta
185608,Dario
185615,Antichrist
185642,Sanguinetti
185887,Sanguinetti
185925,Pierre
185958,Roman Campagna
186071,Pierre
186096,Prada
186135,Sanguinetti
186159,Pierre
186271,Campagna
186306,Pierre
186345,St. Peter
186438,Pierre
186441,Santobono
186492,Eufemio
186552,Sanguinetti
186574,Santobono
186585,Pierre
186790,Antichrist
186800,Antichrist
186803,Pierre
186816,Antichrist
186819,Boccanera
186832,Sanguinetti
186836,Antichrist
186996,Santobono
187021,Pierre
187043,Abbe Eufemio
187135,Pierre
187154,Sanguinetti
187254,Pierre
187316,Pierre
187467,Santobono
187520,Antichrist
187530,Pierre
187536,Santobono
187725,Pierre
187845,Pierre
188009,Pierre
188127,Jesus
188140,Sanguinetti
188208,Leo XIII
188238,Virgil
188351,Pierre
188558,Lourdes
188591,Pierre
188612,Lourdes
188667,Sanguinetti
188732,Pierre
188775,Pope
188841,Sanguinetti
188983,Boccanera
189004,Sanguinetti
189025,Pierre
189181,Pierre
189184,Prada
189286,Pink
189384,Roman Campagna
189387,Pierre
189446,Campagna
189540,Marino
189574,Albano
189622,Castel Gandolfo
189740,Pius IX
189751,Leo XIII
189861,Nemi
189887,Pierre
189893,Nemi
189901,Nemi
189983,Santobono
190163,Pierre
190323,M. Zola
190328,Nemi
190371,Diana
190437,Prada
190442,Pierre
190463,Nemi
190538,Pierre
190565,Prince Buongiovanni
190609,Pierre
190618,Monsieur Narcisse Habert
190658,Corso
190699,Celia
190754,Attilio
190760,Sacco
190793,Prada
190830,Attilio
190857,Sacco
190978,Pierre
190995,Narcisse
191159,Prada
191170,Campagna
191447,Santobono
191472,Pierre
191574,Prada
191610,Signor Conte
191629,Signor Conte
191693,Santobono
191701,Prada
191710,Pierre
191736,Abbe
191752,Santobono
191808,Pierre
191903,Boccanera
191964,Prada
192020,Santobono
192080,Prada
192084,Pierre
192157,Santobono
192168,Pierre
192192,Monsieur
192230,Monsieur l’Abbe
192295,Campagna
192657,Abbe
192664,Prada
192668,Santobono
192720,Sanguinetti
192871,Prada
193192,Moretta
193195,Santobono
193271,Bartolini
193283,Bartolini
193302,Dozio
193308,Dozio
193310,Dozio
193315,Dozio
193340,Prada
193367,Cardinal Sanguinetti
193373,Santobono
193414,Santobono
193528,Boccanera
193628,Boccanera
193659,Santobono
193691,Pierre
193717,Sanguinetti
193739,Abbe Paparelli
193796,Prada
193874,Pierre
193941,Santobono
193956,Prada
194216,La Toffana
194236,St. Nicholas
194372,Pierre
194477,Boccanera
194494,Monsignor Gallo
194575,Gallo
194605,Pierre
194618,Santobono
194689,Nazzarelli
194710,Brando
194735,Mon Dieu
194740,Pierre
194792,Pierre
194980,Pierre
195144,Prada
195277,Santobono
195397,Monsignor Gallo
195408,Cardinal Boccanera
195416,Santobono
195449,Campagna
195704,Prada
195867,Campagna
196069,Santobono
196077,Abbe
196118,Santobono
196145,Marino
196222,Pierre
196244,Prada
196337,Prada
196534,Pierre
196676,Prada
196685,Pierre
196721,Abbe
196747,Santobono
196809,Campagna
196851,Pierre
196875,Prada
196884,Santobono
197088,Prada
197136,Santobono
197231,Pierre
197253,Santobono
197515,Prada
197577,Leo XIII
197583,Santobono
197587,Sanguinetti
197604,Boccanera
197607,Prada
197752,Pierre
197757,Santobono
197792,Prada
198040,Pierre
198074,Prada
198218,Pierre
198247,Santobono
198407,Abbe
198434,Santobono
198467,Prada
198741,Campagna
198884,Campagna
198994,Prada
199052,Boccanera
199200,Benedetta
199202,Dario
199229,Benedetta
199233,Dario
199241,Benedetta
199275,Dario
199294,Prince
199306,Monsignor Gallo
199496,Pierre
199535,Santobono
199643,Pierre
199667,Dario
199737,Monsieur Froment
199813,Prada
199836,Dario
199951,Lisbeth
200096,Campagna
200190,Santobono
200322,Dario
200396,Boccanera
200620,Pierre
200627,Sanguinetti
200677,Santobono
200796,Prada
200828,Pierre
200856,Giulia
200887,Santobono
200901,Pierre
200943,Santobono
201011,Pierre
201013,Narcisse
201184,Pierre
201204,Queen
201216,Prince Buongiovanni
201227,Celia
201230,Attilio Sacco
201317,Narcisse
201323,Pierre
201356,Celia
201525,Celia
201596,Sacco
201643,Sacco
201693,Attilio
201777,Celia
201878,Buongiovannis
201920,Celia
201978,Narcisse
202010,Pierre
202225,Narcisse
202240,Pierre
202441,Pierre
202448,Buongiovanni
202605,Celia
202609,Celia
202658,Saccos
202665,Attilio
202785,Narcisse
202792,Pierre
202795,Celia
202819,Pierre Froment
202827,Benedetta
202843,Pierre
202850,Benedetta
202857,Dario
202879,Pierre
202881,Narcisse
202929,Celia
202937,Attilio
202962,Narcisse
202968,Attilio
203094,Bettina
203185,Buongiovanni
203263,Narcisse
203266,Pierre
203290,Pierre
203488,Buongiovannis
203585,Sacco
203655,Narcisse
203657,Pierre
203710,Sacco
203773,Sacco
203858,Pierre
203873,Narcisse
203912,Boccanera
204039,Prince Buongiovanni
204144,Narcisse
204198,Attilio
204283,Albertini
204327,Pierre
204334,Fornaro
204340,Monsignor Fornaro
204405,Narcisse
204504,Signora Sacco
204513,Pierre
204709,Narcisse
204991,Narcisse
205283,Narcisse
205291,Monsignor Nani
205303,Nani
205396,Pierre
205445,Nani
205448,Celia
205530,Sanguinetti
205552,Pierre
205575,Lourdes
205634,Monseigneur
205670,Nani
205764,Pierre
205969,Nani
206034,Pierre
206039,Narcisse
206097,Pierre
206162,Narcisse
206235,Fornaro
206247,Fornaro
206340,Narcisse
206409,Pierre
206625,Monsignor Fornaro
206678,Pierre
206761,Narcisse
206945,Monsignor Fornaro
207003,Pierre
207019,Boccanera
207187,Narcisse
207190,Pierre
207201,Count Prada
207208,Lisbeth Kauffmann
207321,Lisbeth
207485,Fornaro
207643,Prada
207827,Pierre
207841,Celia
207893,Lisbeth
207902,Narcisse
207949,Pierre
207997,Narcisse
208040,Prada
208135,Lisbeth
208181,Monsignor Fornaro
208239,Pierre
208259,Narcisse
208333,Pierre
208348,Monsignor Fornaro
208373,Prada
208599,Benedetta
208621,Pierre
208651,Dario
208820,Judas
208839,Pope
208890,Boccanera
209085,Pierre
209256,Lisbeth
209258,Pierre
209260,Narcisse
209511,Titian
209513,Rembrandt
209515,Rubens
209517,Velasquez
209519,Ribera
209623,Prada
209663,Narcisse
209679,Pierre
209733,Donna Serafina
209765,Consistorial - Advocate Morano
209840,Morano
209913,Boccaneras
209922,Benedetta
209926,Morano
209929,Donna Serafina
209964,Benedetta
209966,Dario
210053,Celia
210055,Attilio
210079,Dario
210137,Benedetta
210390,Pierre
210440,Prada
210707,Pierre
210754,Villa Borghese
210804,Pierre
210883,Pierre
211087,Humbert
211094,Victor Emanuel
211124,Pierre
211126,Prada
211310,Buongiovanni
211403,Celia
211421,Attilio
211510,Celia
211522,Sacco
211537,Attilio
211603,Margherita
211617,Signora Sacco
211650,Benedetta
211654,Prada
211664,Queen
211703,Contessina
211735,Benedetta
211739,Prada
211746,Dario
211784,Benedetta
211893,Prada
211897,Benedetta
211910,Dario
212031,Prada
212226,Sacco
212254,Sacco
212352,Sacco
212358,Benedetta
212379,Pierre
212633,Prince Buongiovanni
212649,Sacco
212750,Attilio
212752,Celia
212807,Pierre
212968,Pierre
212987,Prada
213024,Celia
213026,Attilio
213037,Benedetta
213039,Dario
213155,Pierre
213188,Celia
213216,Benedetta
213232,Madonna
213310,Benedetta
213362,Celia
213390,Attilio
213413,Dario
213423,Benedetta
213455,Pierre
213559,Benedetta
213561,Dario
213563,Celia
213565,Attilio
213765,Venus
213961,Pierre
213963,Narcisse
213979,Lisbeth
214037,Lisbeth
214123,Lisbeth
214139,Monsieur l’Abbe Froment
214190,Lisbeth
214252,Lisbeth
214317,Dario
214322,Marchioness Montefiori
214329,Jules Laporte
214376,Marquis Montefiori
214739,Donna Serafina
214742,Morano
214784,Lisbeth
214860,Narcisse
214893,Pierre
214927,Monsignor Nani
214950,Prada
214958,Lisbeth
214969,Pierre
215173,Pierre
215177,Monsignor Nani
215203,Cotillon
215269,Nani
215340,Celia
215364,Buongiovanni
215510,Pierre
215579,Nani
215658,Pierre
215784,Nani
215860,Nani
216055,Pierre
216070,Nani
216163,Signor Squadra
216174,Signor Squadra
216208,Pierre
216381,Nani
216461,Pierre
216474,Prada
216515,Celia
216523,Attilio
216612,Pierre
216628,Monsieur Narcisse Habert
216653,Lisbeth
216756,Donna Serafina
216769,Morano
216834,Prada
216867,Celia
216976,Corso
216983,Corso Vittorio Emanuele
216987,Prada
217230,Pierre
217375,Judas
217431,Pierre
217516,Benedetta
217519,Dario
217535,Lisbeth
217819,Pierre
217824,Corso Vittorio Emanuele
217880,Don Vigilio
218000,Dario
218140,Pierre
218142,Prada
218146,Giulia
218312,Pierre
218512,Benedetta
218708,Benedetta
218900,Dario
219034,Pierre
219116,Benedetta
219174,Pierre
219274,Pierre
219347,Benedetta
219404,Viscount de la Choue
219454,Pierre
219460,Viscount
219473,Baron de Fouras
219503,Viscount
219553,Viscount
219555,Pierre
219591,Benedetta
219628,Viscount
219636,Pierre
219725,Benedetta
219744,Nani
219785,Contessina
219953,Pierre
219990,Nani
220011,Nani
220394,Pierre
220504,Pierre
220530,Benedetta
220746,Pierre
220818,Dario
220824,Don Vigilio
220927,Donna Serafina
221013,Celia
221033,Quirinal
221103,Donna Serafina
221147,Leo XIII
221182,Benedetta
221197,Celia
221199,Attilio
221245,Giacomo
221251,Giacomo
221267,Victorine
221274,Benedetta
221290,Victorine
221300,Contessina
221377,Victorine
221387,Contessina
221476,Benedetta
221487,Dario
221504,Donna Serafina
221511,Victorine
221541,Abbe Santobono
221564,Abbe Paparelli
221582,Abbe Paparelli
221625,Abbe Paparelli
221696,Abbe Paparelli
221833,Benedetta
221842,Victorine
221857,Giacomo
221877,Pierre
221918,Dario
221925,Don Vigilio
222022,Giacomo
222073,Donna Serafina
222085,Giacomo
222120,Benedetta
222143,Pierre
222231,Benedetta
222320,Abbe Santobono
222362,Campagna
222369,Benedetta
222380,Prada
222424,Pierre
222484,Donna Serafina
222498,Benedetta
222584,Donna Serafina
222669,Benedetta
222705,Dario
222755,Don Vigilio
222822,Benedetta
222835,Dario
222849,Monsieur l’Abbe
222871,Victorine
222882,Dario
222916,Prince
223031,Benedetta
223037,Dario
223054,Boccanera
223086,Dario
223221,Don Vigilio
223237,Dario
223386,Benedetta
223510,Don Vigilio
223517,Dario
223578,Benedetta
223615,Victorine
223716,Pierre
223739,Victorine
223751,Giordano
223753,Victorine
223778,Benedetta
223796,Dario
223827,Dario
223857,Monsignor Gallo
223988,Benedetta
224141,Pierre
224143,Don Vigilio
224384,Victorine
224427,Giordano
224516,Dario
224540,Benedetta
224624,Contessina
224644,Giordano
224703,Dario
224751,Gallo
224895,Signor Giordano
225054,Giordano
225056,Victorine
225078,Giacomo
225114,Benedetta
225122,Pierre
225124,Don Vigilio
225323,Don Vigilio
225334,Benedetta
225336,Pierre
225583,Tata
225821,Boccanera
225892,Benedetta
225896,Pierre
225898,Don Vigilio
225920,Dario
225999,Prada
226027,Abbe Froment
226041,Santobono
226109,Cardinal Sanguinetti
226113,Santobono
226166,Boccanera
226217,Prada
226224,Benedetta
226290,Dario
226395,Santobono
226515,Benedetta
226553,Dario
226589,Victorine
226832,Christ
226911,Santobono
226916,Sanguinetti
226972,Pierre
226974,Don Vigilio
227054,Benedetta
227068,Dario
227149,Victorine
227199,Pierre
227218,Don Vigilio
227335,Santobono
227341,Pierre
227375,Sanguinetti
227443,Pierre
227513,Pierre
227523,Benedetta
227533,Pierre
227662,Prada
227682,Pierre
227830,Pierre
227832,Don Vigilio
227945,Don Vigilio
228014,Paparelli
228016,Paparelli
228019,Pierre
228120,Don Vigilio
228191,Paparelli
228193,Paparelli
228293,Pierre
228311,Giordano
228341,Victorine
228390,Dario
228411,Gallo
228500,Benedetta
228554,Boccanera
228558,Giordano
228624,Gallo
228660,Giordano
228867,Giordano
228927,Serafina
229291,Dario
229298,Don Vigilio
229369,Don Vigilio
229464,Don Vigilio
229513,Domine
229558,Benedetta
229591,Pierre
229593,Victorine
229612,Contessina
229624,Dario
229670,Prince of the Church
229749,Don Vigilio
229836,Dario
230039,Don Vigilio
230146,Dario
230248,Dario
230416,Benedetta
230452,Benedetta
230454,Benedetta
230563,Dario
230572,Pierre
230574,Victorine
230618,Benedetta
230667,Dario
230835,Prada
230846,Pierre
230943,Dario
230973,Benedetta
230975,Benedetta
230988,Dario
231025,Madonna
231163,Madonna
231246,Madonna
231347,Madonna
231442,Benedetta
231444,Benedetta
231480,Dario
231519,Victorine
231643,Dario
231709,Dario
231736,Pierre
231738,Victorine
231851,Dario
231911,Dario
231933,Pierre
231970,Bocca
232046,Pierre
232074,Ercole
232081,Flavio
232089,Benedetta
232118,Benedetta
232139,Benedetta
232193,Dario
232339,Victorine
232346,Pierre
232436,Dario
232468,Benedetta
232560,Victorine
232577,Pierre
232606,Don Vigilio
232629,Giordano
232634,Donna Serafina
232694,Benedetta
232710,Victorine
232758,Donna Serafina
232827,Victorine
232880,Boccanera
232924,Prince of the Church
233176,Pierre
233294,Benedetta
233329,Pierre
233508,Pierre
233611,Dario
233613,Benedetta
233800,Piazza
233802,St. Peter
233912,Pierre
233922,St. Peter
234013,Charles
234064,Pierre
234275,Pierre
234327,Pierre
234333,Nani
234349,Signor Squadra
234390,Benedetta
234444,Signor Squadra
234585,Pierre
234622,Signor Squadra
234627,Pierre
234783,Pierre
234813,Sala Clementina
234835,Signor Squadra
234839,Pierre
234854,Sala Clementina
234942,Pierre
234958,Signor Squadra
234980,Pierre
235110,Signor Squadra
235115,Pierre
235131,Signor Squadra
235173,Pierre
235189,Narcisse
235330,Pierre
235494,Pierre
235542,Jesus
235879,Camerieri
235939,Signor Squadra
235974,Pierre
236023,Signor Squadra
236031,Pierre
236122,Piazza
236124,St. Peter
236262,Signor Squadra
236270,Pierre
236351,Pierre
236387,Pierre
236603,Pierre
236661,M. Zola
236889,Piazza
236891,St. Peter
236933,Leo XIII
237185,Pierre
237233,Signor Squadra
237458,Pierre
237483,Leo XIII
237653,Signor Squadra
237796,Alexander VI
237804,Julius II
237807,Leo X
237828,Leo XIII
237841,Pierre
237925,Narcisse
237932,Signor Squadra
238019,Signor Squadra
238091,Squadra
238195,Pierre
238252,Pierre
238322,Pope Damasus
238361,Leo III
238367,Charlemagne
238408,Gregory VII
238427,Boniface VIII
238509,Alexander III
238533,Frederick Barbarossa
238546,Julius II
238566,Leo X
238612,Pius V
238682,Benedict XIV
238730,Pierre
238905,Pierre
238918,Leo XIII
238928,Gregory the Great
239046,Christ
239053,Leo XIII
239263,Pierre
239283,Pierre
239295,Leo XIII
239366,Leo XIII
239478,Jesus
239551,Caesar
239643,Leo XIII
239730,Pierre
239833,Monsignor Fornaro
239881,Monsignor Nani
240099,Pierre
240209,Signor Squadra
240260,Pierre
240272,Pierre
240577,Peter
240669,Leo XIII
240742,Pierre saw the Pope
240900,Leo
241061,Leo XIII
241083,Pierre
241087,Signor Squadra
241214,Pierre
241339,Leo XIII
241450,Pierre
241489,Pierre
241524,Leo XIII
241612,Leo XIII
241752,Pierre
241775,Monsignor Nani
241883,Monsieur le Vicomte Philibert de la Choue
241900,Leo XIII
241948,Monsieur de la Choue
242071,Monsieur le Baron de Fouras
242086,Peter
242150,Pierre
242168,Viscount
242217,Viscount
242242,Baron
242279,Pierre
242308,Monsieur de Fouras
242336,Monsieur de la Choue
242423,Leo XIII
242459,Monsieur de la Choue
242476,Monsieur de Fouras
242669,Pierre
242686,Monsieur de la Choue
242764,Viscount
242768,Pierre
242778,Bergerot
242809,Monsieur le Cardinal Bergerot
242816,Leo XIII
242869,Monsieur le Cardinal Bergerot
243036,Monsieur le Cardinal Bergerot
243148,Pierre
243179,Don Vigilio
243191,Pierre
243221,Cardinal Bergerot
243283,Lourdes
243404,Pope
243417,Pierre
243439,Leo XIII
243547,Pierre
243628,Leo XIII
243676,Pierre
243773,Pierre
243777,Gregory
243785,Sixtus V
244028,Pierre
244074,Leo XIII
244097,Pierre
244102,Leo XIII
244117,Jesus Christ
244167,Leo XIII
244418,Leo XIII
244495,Dario
244497,Benedetta
245137,Leo XIII
245506,Pierre
245801,Jesus
246194,Leo XIII
246375,Leo XIII
246403,Pierre
246467,Leo XIII
246684,Pierre
246824,Leo XIII
247102,Pierre
247229,St. Peter
247399,Pierre
247577,Leo XIII
248375,Pierre
248798,St. Peter
248931,Caesar
249033,Leo
249162,Augustus
249166,Augustus
249196,Leo XIII
249403,Pierre
249406,Don Vigilio
249477,Thomas Aquinas
249515,Pierre
249874,Caesars
249889,Pierre
250040,Pierre
250163,Leo XIII
250204,Lourdes
250420,Thomas
250495,Thomas
250518,Pierre
250564,Thomas Aquinas
250694,Pierre
250764,Jesus
250824,Peter
251133,Leo XIII
251337,Pierre
251412,Pierre
251482,Leo XIII
251487,Pope
251503,Pierre
251628,Leo XIII
251665,Pierre
251732,Pius IX
251735,Giovanni Mastai
251764,Pecci
251800,Giovanni
251802,Giovanni
251804,Giovanni
251849,Boccanera
251866,Leo XIII
251870,Gioachino Pecci
251925,Gioachino
251957,Leo XIII
251968,Pius IX
251993,Camerlingo
252007,Boccanera
252064,Pierre
252093,Leo XIII
252128,Leo
252193,Signor Squadra
252205,Pierre
252253,Sala Clementina
252373,Signor Squadra
252395,Pierre
252413,Pierre
252461,St. Damasus
252615,Piazza
252617,St. Peter
252778,Peter
252829,Pierre
252924,Nani
252937,Pierre
252952,Monsignor Nani
253090,Charles ’s Wain
253150,Pierre
253183,Boccanera
253190,Dario
253192,Benedetta
253224,Victorine
253260,Donna Serafina
253512,Donna Serafina
253535,Victorine
253564,Benedetta
253694,Dario
253709,Benedetta
253790,Pierre
253964,Giacomo
254005,Abbe Paparelli
254089,Don Vigilio
254179,Pierre
254183,Abbe Paparelli
254325,Donna Serafina
254346,Pierre
254353,Victorine
254376,Don Vigilio
254724,Pierre
254880,Benedetta
254882,Dario
254988,Pierre
255126,Consistorial - Advocate Morano
255176,Pierre
255365,Benedetta
255397,Dario
255444,Benedetta
255448,Pierre
255767,Pierre
255857,Benedetta
255923,Hercules
256001,Pierre
256009,Benedetta
256128,Pierre
256204,Victorine
256221,Donna Serafina
256312,Victorine
256334,Monsieur l’Abbe
256391,Pierre
256488,Pierre
256513,Victorine
256543,Benedetta
256700,Pierre
256874,Pierre
256916,Abbe Pisoni
256952,Victorine
256979,Benedetta
256999,Dario
257045,Pope
257119,Lorenza
257130,Abbe Pisoni
257241,Victorine
257305,Pierre
257356,Pierre
257365,Victorine
257543,Pierina
257867,Pierre
257873,Dario
257880,Flavia
257891,Jules Laporte
257906,Marquis Montefiori
258007,Jules
258101,Donna Serafina
258135,Victorine
258175,Benedetta
258178,Pierre
258183,Celia
258227,Victorine
258236,Attilio
258277,Celia
258676,Victorine
258705,Prince
258727,Celia
258736,La Pierina
258866,Celia
258929,Victorine
258932,Pierre
259094,Pierre
259096,Celia
259107,Don Vigilio
259157,Celia
259232,Pierre
259237,Tito
259306,Celia
259378,La Pierina
259383,Pierre
259411,Don Vigilio
259460,Pierre
259479,Abbe Paparelli
259549,Pierre
259605,Don Vigilio
259673,Abbe Paparelli
259688,Nani
259701,Monsignor Nani
259706,Pierre
259745,Donna Serafina
259787,Don Vigilio
259803,Nani
259819,Abbe Paparelli
259841,Pierre
259859,Nani
259878,Don Vigilio
259996,Pierre
260044,Nani
260238,Pierre
260241,Nani
260340,Pierre
260342,Nani
260390,Nani
260564,Nani
260934,Pierre
260937,Nani
261116,Nani
261128,Leo XIII
261223,Nani
261497,Pierre
261503,Sanguinetti
261513,Abbe Paparelli
261555,Sanguinetti
261643,Sanguinetti
261651,Pierre
261671,Santobono
261750,Pierre
261797,Pierre
261802,Nani
261890,Pierre
261947,Nani
261965,Benedetta
261999,Don Vigilio
262030,Nani
262094,Nani
262129,Donna Serafina
262133,Pio
262159,Nani
262178,Sanguinetti
262189,Boccanera
262284,Sanguinetti
262293,Pierre
262333,Sanguinetti
262357,Nani
262458,Pierre
262465,Sanguinetti
262468,Nani
262527,Sanguinetti
262529,Boccanera
262622,Boccanera
262651,Sanguinetti
262705,Nani
262883,Pierre
262922,Bergerot
263014,Pierre
263021,Nani
263079,Nani
263183,Pierre
263357,Bergerot
263493,Bergerot
263796,Leo XIII
263846,Bergerot
263902,Nani
264013,Pierre
264065,Nani
264094,Pierre
264257,Don Vigilio
264334,Pierre
264350,Don Vigilio
264372,Paparelli
264374,Paparelli
264451,Sanguinetti
264573,Pierre
264582,Don Vigilio
264642,Donna Serafina
264868,Abbe Paparelli
264932,Santobono
265063,Monsignor Gallo
265127,Don Vigilio
265149,Paparelli
265151,Paparelli
265252,Pierre
265289,Don Vigilio
265514,Pierre
265572,Don Vigilio
265729,Paparelli
265731,Paparelli
265808,Don Vigilio
265834,Pierre
265925,Pierre
265935,Dario
265983,Donna Serafina
266166,Pierre
266211,Donna Serafina
266290,Pierre
266463,Pierre
266562,Pierre
266574,Sarno
266726,Pierre
266802,Donna Serafina
266832,Sarno
266838,Pierre
266883,Boccanera
266895,Paparelli
266965,Paparelli
266982,Pierre
267021,Sanguinetti
267029,Sanguinetti
267060,Donna Serafina
267087,Boccanera
267104,Pierre
267110,Paparelli
267119,Don Vigilio
267181,Cardinal Boccanera
267260,Paparelli
267481,Paparelli
267486,Pierre
267540,Boccanera
267542,Sanguinetti
267545,Santobono
267556,Sanguinetti
267578,Boccanera
267663,Sanguinetti
267735,Abbe Paparelli
267764,Pierre
267777,Pierre
267825,Boccanera
267842,Sanguinetti
267856,Boccanera
267971,Pierre
268072,Pierre
268371,Boccanera
268635,Benedetta
268837,Viscount Philibert de la Choue
268918,Bergerot
268960,Pierre
269004,Boccanera
269333,Pierre
269401,Leo XIII
269410,Boccanera
269527,Pius IX
269620,Leo XIII
269664,Pierre
269973,Leo XIII
270446,Pierre
270454,Boccanera
270460,Leo XIII
270527,Leo XIII
270588,Gioachino
270635,Pierre
271517,God
271786,Pierre
271815,Boccanera
271978,Boccanera
271983,Pierre
272127,Morano
272178,Donna Serafina
272188,Pierre
272196,Don Vigilio
272201,Victorine
272235,Pierre
272237,Don Vigilio
272431,Pierre
272447,Donna Serafina
272664,Pierre
272686,Luigi
272699,Pierre
272788,Pierre
272861,Prada
272914,Pierre
273051,Pierre
273118,Batista
273136,Pierre
273232,Pierre
273331,Monsieur Froment
273454,Pierre
273674,Pierre
273747,Angiolo Mascara
273767,Mascara
273904,Angiolo
273986,Monsieur l’Abbe
274033,Pierre
274036,Angiolo
274073,Monsieur Froment
274329,Pierre
274451,Pierre
274887,Pierre
274895,Boccanera
274919,Cardinal
275098,Campagna
275808,Pierre
276064,Pierre
277155,Pierre
277484,Pierre
277829,Buongiovanni
277963,Sacco
278002,Attilio
278044,Celia
278049,Stefana
278161,Pierre
278360,Angiolo Mascara
278410,Angiolo
278763,Campagna
278827,Pierre
278989,Augustus
279068,Pierre
279275,Mazzini
279458,Benedetta
279503,Pierre
279510,Luigi
279736,Monsieur Froment
279821,Pierre
279837,Luigi Prada
279841,Pierre
279867,Santobono
279879,Campagna
280003,Pierre
280005,Prada
280038,Pierre
280109,Pierre
280420,Pierre
280438,Prince
280445,Contessina
280465,mon Dieu
280499,Benedetta
280596,Pierre
280711,Pierre
280737,Prada
280856,Pierre
280973,Pierre
280998,Pierre
281070,Theophile Morin
281075,Garibaldi
281128,Luigi
281156,Pierre
281201,Morin
281257,Morin
281366,Monsieur Froment
281407,Pierre
281582,Pierre
281659,Boccanera
281725,Pierre
281730,Luigi
281778,Donna Serafina
281824,Pierre
281829,Victorine
281851,Don Vigilio
281884,Pierre
281963,Victorine
281966,Pierre
282311,Pierre
282382,Narcisse Habert
282386,Pierre
282538,Pierre
282562,Pierre
282727,Pierre
282771,Narcisse
282885,Botticelli
283022,Pierre
283031,Botticelli
283041,Don Vigilio
283059,Victorine
283080,Narcisse
283092,Botticelli
283193,Victorine
283198,Giacomo
283205,Pierre
283215,Botticelli
283283,Pierre
283355,Victorine
283359,Donna Serafina
283459,Pierre
283465,Narcisse
283518,Pierre
283526,Victorine
283533,Giacomo
283587,Monsieur l’Abbe
283611,Pierre
283651,Victorine
283666,Contessina
283695,Pierre
283701,Monsieur l’Abbe
283740,Auneau
283812,Mon Dieu
283864,Pierre
283975,Monsieur l’Abbe
283988,Donna Serafina
284041,Auneau
284257,Pierre
284341,Pierre
284346,Victorine
284348,Giacomo
284440,Pierre
284610,Lourdes
284962,Pierre
285098,St. Peter
285112,Pierre
285230,Augustus
285245,Peter
285410,Pierre
285571,Pierre
285639,Leo XIII
285736,Pierre
285827,Pierre
285935,Lourdes
286043,Pierre
286347,Monsignor Nani
286520,Leo XIII
286834,Pierre
286972,Pierre
287011,Theophile Morin
287137,Pierre
287568,Pierre
287961,Pierre
288215,Pierre
288473,Pierre
288682,Leo XIII
288691,Peter
288773,Peter
288793,Pierre
288796,Theophile Morin
288882,Peter
288935,Jove
289158,Pierre
289441,Lourdes
289593,Abbe Rose
289908,Pierre
290112,Pierre
290219,Lourdes
290286,Victorine
290306,Giacomo
290319,Monsieur
290434,Pierre
290467,Don Vigilio
290524,Donna Serafina
290531,Pierre
290549,Victorine
290595,Benedetta
290597,Dario
290745,Pierre
290766,Abbe Paparelli
290841,Victorine
290875,Pierre
290942,Monsieur
290951,Victorine
291009,Pierre
291116,Pierre
291190,Altieri
291484,Pierre
291664,Pierre
291836,Pierre
291843,St. Peter
291883,Babylon
291941,Pierre
291943,Trajan
292147,Lyons
292402,Pierre
292490,Piazza delle Terme
292500,Diocletian
292689,Pierre
292880,Pierre
